default 20.555
time(min),temperature(C)
0, 15.000
1, 14.983
2, 15.083
3, 15.233
4, 15.317
5, 15.483
6, 15.617
7, 15.733
8, 15.850
9, 15.967
10, 16.117
11, 16.250
12, 16.367
13, 16.583
14, 16.883
15, 17.283
16, 17.733
17, 18.250
18, 18.850
19, 19.433
20, 20.050
21, 20.750
22, 21.350
23, 21.950
24, 22.650
25, 23.250
26, 23.750
27, 24.267
28, 24.850
29, 25.350
30, 25.817
31, 26.317
32, 26.783
33, 27.200
34, 27.650
35, 28.100
36, 28.517
37, 28.933
38, 29.350
39, 29.750
40, 30.183
41, 30.550
42, 29.750
43, 29.083
44, 28.633
45, 28.250
46, 27.967
47, 27.700
48, 27.450
49, 27.250
50, 27.083
51, 26.933
52, 26.783
53, 26.667
54, 26.533
55, 26.433
56, 26.333
57, 26.217
58, 26.133
59, 26.017
60, 25.933
61, 25.850
62, 25.767
63, 25.683
64, 25.600
65, 25.533
66, 25.433
67, 25.383
68, 25.300
69, 25.233
70, 25.183
71, 25.100
72, 25.017
73, 24.950
74, 24.900
75, 24.800
76, 24.750
77, 24.700
78, 24.633
79, 24.583
80, 24.500
81, 24.467
82, 24.400
83, 24.367
84, 24.367
85, 25.567
86, 26.117
87, 26.417
88, 25.967
89, 25.600
90, 25.383
91, 25.233
92, 25.067
93, 24.983
94, 24.900
95, 24.817
96, 24.783
97, 24.700
98, 24.683
99, 24.600
100, 24.600
101, 24.567
102, 24.500
103, 24.500
104, 24.500
105, 24.500
106, 24.433
107, 24.433
108, 24.400
109, 24.400
110, 24.400
111, 24.400
112, 24.400
113, 24.400
114, 24.400
115, 24.400
116, 24.367
117, 24.300
118, 24.300
119, 24.300
120, 24.300
121, 24.300
122, 24.300
123, 24.300
124, 24.300
125, 24.267
126, 24.217
127, 24.217
128, 24.200
129, 24.200
130, 24.200
131, 24.200
132, 24.200
133, 24.200
134, 24.200
135, 24.200
136, 24.150
137, 24.117
138, 24.100
139, 24.100
140, 24.100
141, 24.100
142, 24.100
143, 24.100
144, 24.100
145, 24.100
146, 24.100
147, 24.100
148, 24.100
149, 24.100
150, 24.100
151, 24.100
152, 24.100
153, 24.100
154, 24.100
155, 24.683
156, 25.850
157, 26.333
158, 26.117
159, 25.750
160, 25.550
161, 25.400
162, 25.300
163, 25.217
164, 25.200
165, 25.200
166, 25.200
167, 25.200
168, 25.167
169, 25.183
170, 25.133
171, 25.150
172, 25.200
173, 25.200
174, 25.200
175, 25.200
176, 25.200
177, 25.200
178, 25.200
179, 25.200
180, 25.200
181, 25.200
182, 25.200
183, 25.200
184, 25.200
185, 25.200
186, 25.200
187, 25.200
188, 25.200
189, 25.200
190, 25.200
191, 25.200
192, 25.200
193, 25.200
194, 25.200
195, 25.200
196, 25.167
197, 25.133
198, 25.117
199, 25.150
200, 25.100
201, 25.100
202, 25.100
203, 25.100
204, 25.100
205, 25.100
206, 25.100
207, 25.100
208, 25.100
209, 25.100
210, 25.100
211, 25.100
212, 25.100
213, 25.100
214, 25.100
215, 25.100
216, 25.067
217, 25.067
218, 25.083
219, 25.050
220, 25.083
221, 25.067
222, 25.000
223, 25.017
224, 25.083
225, 25.083
226, 25.100
227, 25.100
228, 25.100
229, 25.100
230, 25.100
231, 25.100
232, 25.100
233, 25.100
234, 25.100
235, 25.100
236, 25.100
237, 25.100
238, 25.100
239, 25.100
240, 25.100
241, 25.100
242, 25.117
243, 25.133
244, 25.100
245, 25.100
246, 25.200
247, 25.200
248, 25.200
249, 25.200
250, 25.200
251, 25.200
252, 25.200
253, 25.200
254, 25.200
255, 25.200
256, 25.717
257, 25.800
258, 25.333
259, 24.933
260, 24.650
261, 24.417
262, 24.233
263, 24.067
264, 23.900
265, 23.767
266, 23.650
267, 23.533
268, 23.417
269, 23.317
270, 23.233
271, 23.133
272, 23.067
273, 23.000
274, 22.917
275, 22.850
276, 22.800
277, 22.700
278, 22.667
279, 22.600
280, 22.567
281, 22.500
282, 22.467
283, 22.400
284, 22.383
285, 22.300
286, 22.300
287, 22.233
288, 22.200
289, 22.200
290, 22.100
291, 22.100
292, 22.067
293, 22.000
294, 22.000
295, 22.000
296, 21.900
297, 21.900
298, 21.900
299, 21.850
300, 21.800
301, 21.800
302, 21.800
303, 21.733
304, 21.700
305, 21.700
306, 18.100
307, 15.283
308, 15.067
309, 14.950
310, 14.917
311, 14.917
312, 14.900
313, 14.900
314, 14.900
315, 14.900
316, 14.883
317, 14.883
318, 14.900
319, 14.900
320, 14.900
321, 14.917
322, 14.900
323, 14.900
324, 14.917
325, 14.983
326, 15.067
327, 15.233
328, 15.367
329, 15.517
330, 15.633
331, 15.767
332, 15.900
333, 16.017
334, 16.150
335, 16.267
336, 16.367
337, 16.483
338, 16.567
339, 16.683
340, 16.767
341, 16.883
342, 16.983
343, 17.067
344, 15.667
345, 15.150
346, 15.083
347, 15.050
348, 15.050
349, 15.150
350, 15.300
351, 15.450
352, 15.600
353, 15.717
354, 14.933
355, 15.067
356, 15.050
357, 15.050
358, 15.150
359, 15.283
360, 15.417
361, 15.550
362, 15.650
363, 15.783
364, 15.917
365, 16.033
366, 16.150
367, 16.267
368, 16.383
369, 16.500
370, 16.617
371, 16.733
372, 16.833
373, 16.950
374, 17.067
375, 17.167
376, 17.267
377, 17.417
378, 17.500
379, 17.617
380, 17.733
381, 17.867
382, 18.000
383, 18.133
384, 18.250
385, 18.383
386, 18.550
387, 18.683
388, 18.833
389, 18.967
390, 19.117
391, 19.250
392, 19.400
393, 19.533
394, 19.667
395, 19.817
396, 19.950
397, 20.083
398, 20.233
399, 20.350
400, 20.483
401, 20.633
402, 20.750
403, 20.850
404, 20.967
405, 21.083
406, 21.217
407, 21.317
408, 21.417
409, 21.517
410, 21.633
411, 21.750
412, 21.817
413, 21.933
414, 18.983
415, 15.133
416, 15.033
417, 15.000
418, 14.967
419, 14.950
420, 14.900
421, 14.950
422, 15.050
423, 15.233
424, 15.367
425, 15.533
426, 15.683
427, 15.833
428, 15.950
429, 16.083
430, 16.200
431, 16.317
432, 16.450
433, 16.533
434, 16.650
435, 16.767
436, 16.867
437, 17.000
438, 17.083
439, 17.183
440, 17.283
441, 17.417
442, 17.533
443, 17.650
444, 17.800
445, 17.933
446, 18.067
447, 18.217
448, 18.350
449, 18.500
450, 18.650
451, 18.767
452, 18.950
453, 19.083
454, 19.250
455, 19.383
456, 19.550
457, 19.700
458, 19.833
459, 19.967
460, 20.117
461, 20.250
462, 20.383
463, 20.533
464, 20.650
465, 20.767
466, 20.900
467, 21.033
468, 21.150
469, 21.267
470, 21.383
471, 21.500
472, 21.633
473, 21.717
474, 21.833
475, 21.950
476, 22.050
477, 22.150
478, 22.250
479, 22.350
480, 22.433
481, 22.500
482, 22.600
483, 22.700
484, 22.767
485, 22.833
486, 22.900
487, 23.000
488, 23.050
489, 23.100
490, 23.183
491, 23.233
492, 23.300
493, 23.367
494, 23.417
495, 23.500
496, 23.533
497, 23.600
498, 23.650
499, 23.700
500, 23.767
501, 23.800
502, 23.867
503, 23.900
504, 23.950
505, 23.983
506, 24.000
507, 24.083
508, 24.100
509, 24.117
510, 24.200
511, 24.200
512, 24.200
513, 24.300
514, 24.300
515, 24.350
516, 24.383
517, 24.400
518, 24.400
519, 24.467
520, 24.500
521, 24.500
522, 24.500
523, 24.567
524, 24.600
525, 24.600
526, 24.600
527, 24.600
528, 24.600
529, 24.633
530, 24.683
531, 24.700
532, 24.700
533, 24.700
534, 24.700
535, 24.700
536, 24.733
537, 24.800
538, 24.800
539, 24.800
540, 24.800
541, 24.800
542, 24.800
543, 24.800
544, 24.883
545, 24.850
546, 24.900
547, 24.900
548, 24.900
549, 24.900
550, 24.900
551, 24.900
552, 24.900
553, 24.900
554, 24.900
555, 25.000
556, 25.000
557, 25.000
558, 25.000
559, 25.000
560, 25.000
561, 25.000
562, 25.000
563, 25.050
564, 25.500
565, 25.683
566, 25.267
567, 24.867
568, 24.600
569, 24.350
570, 24.150
571, 24.000
572, 23.850
573, 23.700
574, 23.567
575, 23.450
576, 23.350
577, 23.233
578, 23.150
579, 23.067
580, 22.983
581, 22.900
582, 22.833
583, 22.783
584, 22.700
585, 22.633
586, 22.600
587, 22.533
588, 22.500
589, 22.433
590, 22.400
591, 22.317
592, 22.300
593, 22.250
594, 22.200
595, 22.200
596, 22.150
597, 22.100
598, 22.100
599, 22.033
600, 22.000
601, 22.000
602, 21.933
603, 21.900
604, 21.900
605, 21.867
606, 21.800
607, 21.800
608, 21.800
609, 21.767
610, 21.700
611, 21.700
612, 21.700
613, 21.650
614, 21.600
615, 21.600
616, 21.600
617, 21.600
618, 21.550
619, 21.500
620, 21.500
621, 21.500
622, 21.500
623, 21.433
624, 21.400
625, 21.400
626, 21.400
627, 21.400
628, 21.400
629, 21.333
630, 21.300
631, 21.300
632, 21.300
633, 21.300
634, 21.300
635, 21.283
636, 21.217
637, 21.200
638, 21.200
639, 21.200
640, 21.200
641, 21.200
642, 21.200
643, 21.200
644, 21.133
645, 21.100
646, 21.100
647, 21.100
648, 21.100
649, 21.100
650, 21.100
651, 21.100
652, 21.050
653, 21.017
654, 21.000
655, 21.000
656, 21.000
657, 21.000
658, 21.000
659, 21.000
660, 21.000
661, 21.000
662, 21.000
663, 21.000
664, 20.983
665, 20.917
666, 20.917
667, 20.900
668, 20.900
669, 20.900
670, 20.900
671, 20.900
672, 20.900
673, 20.900
674, 20.900
675, 20.900
676, 20.900
677, 20.900
678, 20.867
679, 20.833
680, 20.817
681, 20.800
682, 20.800
683, 20.800
684, 20.800
685, 20.800
686, 20.800
687, 20.800
688, 20.800
689, 20.800
690, 20.800
691, 20.800
692, 20.800
693, 20.800
694, 20.783
695, 20.800
696, 20.783
697, 20.783
698, 20.717
699, 20.700
700, 20.717
701, 20.700
702, 20.700
703, 20.700
704, 20.700
705, 20.700
706, 20.700
707, 20.700
708, 20.700
709, 20.700
710, 20.700
711, 20.700
712, 20.700
713, 20.700
714, 20.700
715, 20.700
716, 20.700
717, 20.700
718, 20.700
719, 20.700
720, 20.700
721, 20.700
722, 20.683
723, 20.700
724, 20.667
725, 20.650
726, 20.633
727, 20.617
728, 20.600
729, 20.600
730, 20.600
731, 20.600
732, 20.600
733, 20.600
734, 20.600
735, 20.600
736, 20.600
737, 20.600
738, 20.600
739, 20.600
740, 20.600
741, 20.600
742, 20.600
743, 20.600
744, 20.600
745, 20.600
746, 20.600
747, 20.600
748, 20.600
749, 20.600
750, 20.600
751, 20.600
752, 20.600
753, 20.600
754, 20.600
755, 20.600
756, 20.600
757, 20.600
758, 20.600
759, 20.600
760, 20.600
761, 20.600
762, 20.600
763, 20.600
764, 20.600
765, 20.600
766, 20.600
767, 20.600
768, 20.600
769, 20.583
770, 20.583
771, 20.583
772, 20.600
773, 20.600
774, 20.600
775, 20.567
776, 20.583
777, 20.583
778, 20.567
779, 20.550
780, 20.567
781, 20.550
782, 20.550
783, 20.567
784, 20.533
785, 20.567
786, 20.550
787, 20.567
788, 20.567
789, 20.500
790, 20.550
791, 20.533
792, 20.517
793, 20.517
794, 20.517
795, 20.517
796, 20.517
797, 20.500
798, 20.533
799, 20.517
800, 20.500
801, 20.500
802, 20.517
803, 20.500
804, 20.500
805, 20.500
806, 20.500
807, 20.500
808, 20.500
809, 20.500
810, 20.500
811, 20.500
812, 20.500
813, 20.500
814, 20.500
815, 20.500
816, 20.500
817, 20.500
818, 20.500
819, 20.500
820, 20.500
821, 20.500
822, 20.500
823, 20.500
824, 20.500
825, 20.500
826, 20.500
827, 20.500
828, 20.500
829, 20.500
830, 20.500
831, 20.500
832, 20.500
833, 20.500
834, 20.500
835, 20.533
836, 20.517
837, 20.500
838, 20.500
839, 20.500
840, 20.517
841, 20.500
842, 20.500
843, 20.500
844, 20.533
845, 20.500
846, 20.500
847, 20.517
848, 20.517
849, 20.517
850, 20.533
851, 20.500
852, 20.550
853, 20.500
854, 20.517
855, 20.550
856, 20.550
857, 20.550
858, 20.567
859, 20.567
860, 20.567
861, 20.583
862, 20.567
863, 20.600
864, 20.583
865, 20.600
866, 20.600
867, 20.600
868, 20.600
869, 20.583
870, 20.600
871, 20.583
872, 20.583
873, 20.600
874, 20.600
875, 20.583
876, 20.600
877, 20.583
878, 20.583
879, 20.600
880, 20.600
881, 20.567
882, 20.583
883, 20.600
884, 20.600
885, 20.600
886, 20.600
887, 20.600
888, 20.600
889, 20.600
890, 20.600
891, 20.600
892, 20.583
893, 20.600
894, 20.567
895, 20.567
896, 20.600
897, 20.583
898, 20.600
899, 20.600
900, 20.583
901, 20.583
902, 20.583
903, 20.600
904, 20.600
905, 20.600
906, 20.600
907, 20.600
908, 20.600
909, 20.600
910, 20.583
911, 20.583
912, 20.600
913, 20.600
914, 20.600
915, 20.583
916, 20.600
917, 20.600
918, 20.600
919, 20.600
920, 20.600
921, 20.600
922, 20.600
923, 20.600
924, 20.583
925, 20.600
926, 20.600
927, 20.600
928, 20.600
929, 20.600
930, 20.600
931, 20.600
932, 20.600
933, 20.600
934, 20.600
935, 20.600
936, 20.600
937, 20.600
938, 20.600
939, 20.583
940, 20.600
941, 20.600
942, 20.600
943, 20.600
944, 20.600
945, 18.533
946, 15.300
947, 15.017
948, 14.967
949, 14.900
950, 14.917
951, 14.900
952, 15.050
953, 15.250
954, 15.450
955, 15.583
956, 15.717
957, 15.833
958, 15.933
959, 16.050
960, 16.167
961, 16.283
962, 16.383
963, 16.500
964, 16.600
965, 16.700
966, 16.783
967, 16.917
968, 17.000
969, 17.083
970, 17.183
971, 17.300
972, 17.417
973, 17.533
974, 17.650
975, 17.767
976, 17.917
977, 18.050
978, 18.200
979, 18.350
980, 18.483
981, 18.633
982, 18.750
983, 18.883
984, 19.050
985, 19.183
986, 19.333
987, 19.467
988, 19.650
989, 19.783
990, 19.950
991, 20.083
992, 20.200
993, 20.350
994, 20.500
995, 20.650
996, 20.800
997, 20.950
998, 21.067
999, 21.200
1000, 21.333
1001, 21.450
1002, 21.567
1003, 21.717
1004, 18.917
1005, 15.150
1006, 15.017
1007, 14.983
1008, 14.967
1009, 14.933
1010, 15.067
1011, 15.200
1012, 15.350
1013, 15.500
1014, 15.650
1015, 15.767
1016, 15.883
1017, 16.000
1018, 16.133
1019, 16.250
1020, 16.350
1021, 16.483
1022, 16.583
1023, 16.717
1024, 16.817
1025, 16.933
1026, 17.050
1027, 17.167
1028, 17.300
1029, 17.433
1030, 17.583
1031, 17.750
1032, 17.900
1033, 17.967
1034, 15.967
1035, 15.200
1036, 15.100
1037, 15.100
1038, 15.200
1039, 15.333
1040, 15.467
1041, 15.617
1042, 15.733
1043, 15.850
1044, 15.967
1045, 16.117
1046, 16.217
1047, 16.350
1048, 16.467
1049, 16.567
1050, 16.683
1051, 16.817
1052, 16.933
1053, 17.050
1054, 17.150
1055, 17.300
1056, 17.450
1057, 17.583
1058, 17.767
1059, 17.917
1060, 18.100
1061, 18.250
1062, 18.450
1063, 18.617
1064, 18.817
1065, 18.983
1066, 19.167
1067, 19.350
1068, 19.550
1069, 19.733
1070, 19.917
1071, 20.117
1072, 20.283
1073, 20.450
1074, 20.617
1075, 20.783
1076, 20.967
1077, 21.117
1078, 20.950
1079, 17.000
1080, 15.383
1081, 15.150
1082, 15.117
1083, 15.233
1084, 14.700
1085, 15.017
1086, 15.033
1087, 15.050
1088, 15.117
1089, 15.250
1090, 15.350
1091, 15.450
1092, 15.550
1093, 15.650
1094, 15.750
1095, 15.850
1096, 15.933
1097, 16.017
1098, 16.100
1099, 16.183
1100, 16.233
1101, 16.300
1102, 16.400
1103, 16.450
1104, 16.500
1105, 16.600
1106, 16.667
1107, 16.717
1108, 16.800
1109, 16.867
1110, 16.900
1111, 17.000
1112, 17.033
1113, 17.100
1114, 17.167
1115, 17.200
1116, 17.283
1117, 17.317
1118, 17.400
1119, 17.433
1120, 17.500
1121, 17.533
1122, 17.600
1123, 17.650
1124, 17.700
1125, 17.750
1126, 17.800
1127, 17.833
1128, 17.900
1129, 17.900
1130, 18.000
1131, 18.000
1132, 18.083
1133, 18.100
1134, 18.167
1135, 18.200
1136, 18.200
1137, 18.300
1138, 18.300
1139, 18.333
1140, 18.400
1141, 18.400
1142, 18.483
1143, 18.500
1144, 18.500
1145, 18.600
1146, 18.600
1147, 18.617
1148, 18.700
1149, 18.700
1150, 18.717
1151, 18.800
1152, 18.800
1153, 18.800
1154, 18.883
1155, 18.900
1156, 18.900
1157, 18.933
1158, 19.000
1159, 19.000
1160, 19.000
1161, 19.067
1162, 19.100
1163, 19.100
1164, 19.100
1165, 19.167
1166, 19.200
1167, 19.200
1168, 19.200
1169, 19.250
1170, 19.300
1171, 19.300
1172, 19.300
1173, 19.317
1174, 19.400
1175, 19.400
1176, 19.400
1177, 19.400
1178, 19.417
1179, 19.500
1180, 19.500
1181, 19.500
1182, 19.500
1183, 19.517
1184, 19.600
1185, 19.600
1186, 19.600
1187, 19.600
1188, 19.600
1189, 19.633
1190, 19.700
1191, 19.700
1192, 19.700
1193, 19.700
1194, 19.700
1195, 19.717
1196, 19.750
1197, 19.800
1198, 19.800
1199, 19.800
1200, 19.800
1201, 19.817
1202, 19.833
1203, 19.883
1204, 19.900
1205, 19.900
1206, 19.900
1207, 19.900
1208, 19.900
1209, 19.900
1210, 19.900
1211, 19.983
1212, 19.983
1213, 20.000
1214, 20.000
1215, 20.000
1216, 20.000
1217, 20.000
1218, 20.000
1219, 20.000
1220, 20.000
1221, 20.083
1222, 20.100
1223, 20.100
1224, 20.100
1225, 20.100
1226, 20.100
1227, 20.100
1228, 20.100
1229, 20.100
1230, 20.100
1231, 20.150
1232, 20.133
1233, 20.167
1234, 20.200
1235, 20.200
1236, 20.200
1237, 20.200
1238, 20.200
1239, 20.200
1240, 20.200
1241, 20.200
1242, 20.200
1243, 20.200
1244, 20.233
1245, 20.233
1246, 20.300
1247, 20.283
1248, 20.267
1249, 20.300
1250, 20.300
1251, 20.300
1252, 20.300
1253, 20.300
1254, 20.300
1255, 20.300
1256, 20.300
1257, 20.300
1258, 20.300
1259, 20.300
1260, 20.300
1261, 20.300
1262, 20.317
1263, 20.300
1264, 20.350
1265, 20.333
1266, 20.383
1267, 20.400
1268, 20.400
1269, 20.400
1270, 20.383
1271, 20.400
1272, 20.400
1273, 20.417
1274, 18.450
1275, 15.583
1276, 15.217
1277, 15.083
1278, 15.100
1279, 15.167
1280, 15.300
1281, 15.433
1282, 15.550
1283, 15.650
1284, 15.750
1285, 15.833
1286, 15.933
1287, 16.017
1288, 16.167
1289, 15.350
1290, 15.117
1291, 15.033
1292, 14.983
1293, 14.900
1294, 15.000
1295, 15.133
1296, 15.233
1297, 15.333
1298, 15.433
1299, 15.517
1300, 15.617
1301, 15.717
1302, 15.800
1303, 15.900
1304, 16.583
1305, 15.167
1306, 14.983
1307, 14.900
1308, 14.983
1309, 15.133
1310, 15.233
1311, 15.350
1312, 15.500
1313, 15.617
1314, 15.717
1315, 15.817
1316, 15.950
1317, 16.067
1318, 16.167
1319, 15.600
1320, 14.967
1321, 14.967
1322, 14.900
1323, 15.033
1324, 15.167
1325, 15.267
1326, 15.417
1327, 15.550
1328, 15.683
1329, 15.817
1330, 15.917
1331, 16.050
1332, 16.150
1333, 16.283
1334, 16.383
1335, 15.367
1336, 14.967
1337, 14.917
1338, 14.900
1339, 14.917
1340, 14.900
1341, 14.933
1342, 15.067
1343, 15.250
1344, 15.367
1345, 15.500
1346, 15.633
1347, 15.767
1348, 15.883
1349, 16.017
1350, 16.133
1351, 16.250
1352, 16.383
1353, 16.483
1354, 16.583
1355, 16.683
1356, 16.817
1357, 16.900
1358, 17.017
1359, 17.133
1360, 17.250
1361, 17.333
1362, 17.467
1363, 17.567
1364, 17.700
1365, 17.833
1366, 17.950
1367, 18.067
1368, 18.233
1369, 18.367
1370, 18.483
1371, 18.633
1372, 18.750
1373, 18.867
1374, 19.017
1375, 19.167
1376, 19.333
1377, 19.467
1378, 19.600
1379, 19.767
1380, 19.900
1381, 20.050
1382, 20.200
1383, 20.333
1384, 20.467
1385, 20.617
1386, 20.733
1387, 20.850
1388, 20.983
1389, 21.100
1390, 21.233
1391, 21.333
1392, 21.433
1393, 21.550
1394, 21.667
1395, 21.767
1396, 21.867
1397, 21.967
1398, 22.050
1399, 22.133
1400, 22.217
1401, 22.300
1402, 22.400
1403, 22.467
1404, 22.517
1405, 22.600
1406, 22.700
1407, 22.750
1408, 22.817
1409, 22.900
1410, 22.983
1411, 23.033
1412, 23.100
1413, 23.167
1414, 23.233
1415, 23.300
1416, 23.350
1417, 23.400
1418, 23.467
1419, 23.500
1420, 23.533
1421, 23.600
1422, 23.600
1423, 23.683
1424, 23.700
1425, 23.783
1426, 23.800
1427, 23.833
1428, 23.900
1429, 23.933
1430, 24.000
1431, 24.000
1432, 24.033
1433, 24.100
1434, 24.100
1435, 24.100
1436, 24.183
1437, 24.200
1438, 24.200
1439, 24.200
