default 20,
hour,temp
0,20.18945614
1,20.1656
2,20.1115
3,20.04003333
4,19.9648
5,19.88376667
6,19.7739
7,19.68916667
8,19.61321667
9,19.475
10,19.35948333
11,19.2805
12,19.23616667
13,19.23226667
14,19.29823333
15,19.36493333
16,19.44243333
17,19.47
18,19.46993333
19,19.50043333
20,19.49275
21,19.49073333
22,19.47491667
23,19.42446667
24,19.34056667
25,19.29366667
26,19.2576
27,19.17533333
28,19.09655
29,19.01116667
30,18.87861667
31,18.7657
32,18.95933333
33,19.2961
34,19.64026667
35,19.95606667
36,20.2392
37,20.49616667
38,20.71571667
39,20.9435
40,21.19526667
41,21.34143333
42,20.95058333
43,20.45103333
44,20.11313333
45,19.8317
46,19.59751667
47,19.39316667
48,19.13198333
49,18.86893333
50,18.6175
51,18.3717
52,18.15433333
53,18.02043333
54,17.84498333
55,17.66266667
56,17.44291667
57,17.26216667
58,17.3284
59,17.5421
60,17.78226667
61,17.9173
62,17.97658333
63,18.12693333
64,18.25611667
65,18.36623333
66,18.37761667
67,18.3585
68,18.28935
69,18.11833333
70,17.9163
71,17.72443333
72,17.58741667
73,17.48426667
74,17.37731667
75,17.22003333
76,17.09551667
77,16.98766667
78,16.87975
79,16.7868
80,16.6156
81,16.43176667
82,16.32066667
83,16.3454
84,16.49901667
85,16.7323
86,16.98988333
87,17.23316667
88,17.43105
89,17.61346667
90,17.72116667
91,17.77733333
92,17.76641667
93,17.76193333
94,17.73586667
95,17.69236667
96,17.69215
97,17.71583333
98,17.68485
99,17.63213333
100,17.56538333
101,17.47973333
102,17.394
103,17.29196667
104,17.15561667
105,17.20783333
106,17.40443333
107,17.7915
108,18.2895
109,18.72666667
110,19.12528333
111,19.46816667
112,19.79441667
113,20.09323333
114,20.34876667
115,20.1727
116,19.69043333
117,19.28133333
118,18.95795
119,18.70866667
120,18.47811667
121,18.3439
122,18.28183333
123,18.1864
124,18.12506667
125,18.09526667
126,18.07388333
127,18.03516667
128,17.97838333
129,18.00866667
130,18.29726667
131,18.68093333
132,19.1025
133,19.44103333
134,19.72281667
135,19.94526667
136,20.18393333
137,20.43033333
138,20.63668333
139,20.61903333
140,20.19991667
141,19.84453333
142,19.67275
143,19.47343333
144,19.29256667
145,19.13556667
146,19.06351667
147,19.02566667
148,18.96211667
149,18.9166
150,18.87943333
151,18.83986667
152,18.74708333
153,18.6439
154,18.8653
155,19.2212
156,19.6844
157,20.06816667
158,20.4172
159,20.75503333
160,21.03253333
161,21.2636
162,21.49225
163,21.6426
164,21.3096
165,20.793
166,20.46925
167,20.31666667
168,20.19601667
169,20.03996667
170,19.94091667
171,19.85376667
172,19.74475
173,19.66913333
174,19.59105
175,19.5196
176,19.44738333
177,19.345
178,19.4283
179,19.7121
180,20.09606667
181,20.47163333
182,20.8055
183,21.1321
184,21.49793333
185,21.82523333
186,21.935
187,22.0115
188,21.91235
189,21.45513333
190,21.08156667
191,20.88626667
192,20.65191667
193,20.4605
194,20.33943333
195,20.22543333
196,20.10406667
197,19.95533333
198,19.81906667
199,19.7075
200,19.5815
201,19.4726
202,19.45433333
203,19.71493333
204,20.0961
205,20.44933333
206,20.70526667
207,20.9335
208,21.15608333
209,21.4428
210,21.62065
211,21.75113333
212,21.859
213,21.52023333
214,21.11378333
215,20.87443333
216,20.75846667
217,20.68883333
218,20.56665
219,20.52646667
220,20.47475
221,20.36676667
222,20.25358333
223,20.15833333
224,20.07223333
225,19.96713333
226,19.88743333
227,19.814
228,19.75396667
229,19.79386667
230,19.84206667
231,19.94783333
232,20.01416667
233,20.1026
234,20.26101667
235,20.38196667
236,20.37778333
237,20.38216667
238,20.3406
239,20.28743333
240,20.23503333
241,20.15253333
242,20.0715
243,19.99716667
244,19.9679
245,19.94646667
246,19.86848333
247,19.80116667
248,19.74368333
249,19.65546667
250,19.59141667
251,19.5058
252,19.38283333
253,19.2723
254,19.14055
255,19.1207
256,19.2177
257,19.43033333
258,19.63331667
259,19.78616667
260,19.94181667
261,20.03716667
262,19.9885
263,19.87483333
264,19.76253333
265,19.69363333
266,19.66283333
267,19.67833333
268,19.68508333
269,19.6821
270,19.6568
271,19.59703333
272,19.516
273,19.43696667
274,19.3545
275,19.27643333
276,19.48078333
277,19.836
278,20.19456667
279,20.47243333
280,20.7135
281,20.96043333
282,21.21991667
283,21.42873333
284,21.56403333
285,21.73306667
286,21.46558333
287,21.00616667
288,20.68386667
289,20.51783333
290,20.39923333
291,20.32553333
292,20.26941667
293,20.1864
294,20.08796667
295,19.9952
296,19.89683333
297,19.792
298,19.66388333
299,19.5336
300,19.5855
301,19.84376667
302,20.18666667
303,20.49586667
304,20.76256667
305,21.00793333
306,21.24085
307,21.47166667
308,21.6559
309,21.77053333
310,21.68045
311,21.22866667
312,20.851
313,20.59386667
314,20.39006667
315,20.2746
316,20.20596667
317,20.07716667
318,20.00581667
319,19.9361
320,19.83678333
321,19.73343333
322,19.62975
323,19.51596667
324,19.42155
325,19.5931
326,19.92026667
327,20.26633333
328,20.50406667
329,20.6457
330,20.84321667
331,21.07446667
332,21.31541667
333,21.4699
334,21.46823333
335,21.01716667
336,20.60603333
337,20.39816667
338,20.23016667
339,20.03356667
340,19.89871667
341,19.82393333
342,19.72408333
343,19.60923333
344,19.514
345,19.4267
346,19.33938333
347,19.2575
348,19.17323333
349,19.2939
350,19.60403333
351,19.9702
352,20.27491667
353,20.5509
354,20.83155
355,21.11116667
356,21.34538333
357,21.58
358,21.82488333
359,21.6314
360,21.1651
361,20.86976667
362,20.67675
363,20.5286
364,20.4404
365,20.34966667
366,20.24963333
367,20.16066667
368,20.06321667
369,19.9618
370,19.8549
371,19.76053333
372,19.6845
373,19.68636667
374,19.93628333
375,20.30506667
376,20.65438333
377,20.93933333
378,21.19071667
379,21.3747
380,21.51996667
381,21.66183333
382,21.83933333
383,21.88136667
384,21.41553333
385,21.0011
386,20.80676667
387,20.6205
388,20.40203333
389,20.17046667
390,20.06058333
391,20.0351
392,19.98025
393,19.9286
394,19.87596667
395,19.8098
396,19.72206667
397,19.5945
398,19.4809
399,19.431
400,19.47315
401,19.5078
402,19.53325
403,19.44276667
404,19.37126667
405,19.35283333
406,19.39815
407,19.451
408,19.42008333
409,19.32383333
410,19.26813333
411,19.24546667
412,19.23566667
413,19.22463333
414,19.26151667
415,19.29306667
416,19.27363333
417,19.24833333
418,19.21686667
419,19.18363333
420,19.14025
421,19.07743333
422,18.99325
423,18.90063333
424,18.83908333
425,18.81966667
426,18.85228333
427,18.925
428,18.98781667
429,19.07753333
430,19.15853333
431,19.25606667
432,19.33475
433,19.3798
434,19.37583333
435,19.30843333
436,19.20713333
437,19.09083333
438,19.05286667
439,18.9989
440,18.89496667
441,18.7441
442,18.59658333
443,18.46753333
444,18.44013333
445,18.4475
446,18.45221667
447,18.43783333
448,18.394
449,18.3337
450,18.32031667
451,18.33706667
452,18.37808333
453,18.46106667
454,18.56128333
455,18.66036667
456,18.70608333
457,18.70233333
458,18.74765
459,18.77676667
460,18.80103333
461,18.80963333
462,18.78958333
463,18.8212
464,18.86115
465,18.87526667
466,18.86333333
467,18.834
468,18.8094
469,18.76886667
470,18.69976667
471,18.85113333
472,19.21408333
473,19.6223
474,19.94613333
475,20.20753333
476,20.47548333
477,20.782
478,21.04478333
479,21.32303333
480,21.62498333
481,21.52693333
482,21.04525
483,20.65836667
484,20.42503333
485,20.2282
486,19.98596667
487,19.74033333
488,19.53228333
489,19.40563333
490,19.23746667
491,19.0077
492,18.79508333
493,18.58536667
494,18.41026667
495,18.28673333
496,18.41486667
497,18.68383333
498,18.99896667
499,19.41746667
500,19.9367
501,20.47536667
502,20.96275
503,21.30103333
504,21.63863333
505,21.86443333
506,21.49903333
507,21.066
508,20.76781667
509,20.4816
510,20.17676667
511,19.9478
512,19.83483333
513,19.69936667
514,19.54125
515,19.37473333
516,19.22081667
517,19.01383333
518,18.74476667
519,18.53103333
520,18.57278333
521,18.7585
522,19.16275
523,19.68523333
524,20.15443333
525,20.56513333
526,20.88606667
527,21.169
528,21.43806667
529,21.70036667
530,21.49966667
531,21.04203333
532,20.66541667
533,20.38623333
534,20.10755
535,19.77693333
536,19.55475
537,19.38133333
538,19.12595
539,18.86313333
540,18.63805
541,18.3983
542,18.18866667
543,18.00786667
544,18.00255
545,18.20576667
546,18.51978333
547,18.8735
548,19.14776667
549,19.4414
550,19.7963
551,20.13763333
552,20.38983333
553,20.683
554,20.71583333
555,20.28603333
556,19.89786667
557,19.6275
558,19.40095
559,19.213
560,19.06226667
561,18.98343333
562,18.95575
563,18.8958
564,18.83711667
565,18.7789
566,18.73343333
567,18.69016667
568,18.62323333
569,18.5893
570,18.60388333
571,18.6931
572,18.79325
573,18.83686667
574,18.74003333
575,18.74946667
576,18.81768333
577,18.9285
578,18.9893
579,18.99296667
580,19.03133333
581,19.04746667
582,19.00575
583,18.99266667
584,19.02605
585,19.09026667
586,19.10965
587,19.095
588,19.07933333
589,19.04796667
590,18.98735
591,18.8839
592,18.73591667
593,18.5847
594,18.4629
595,18.3508
596,18.28698333
597,18.3635
598,18.5214
599,18.73736667
600,18.94988333
601,19.1234
602,19.18466667
603,19.17913333
604,19.19225
605,19.19696667
606,19.15276667
607,18.98016667
608,18.7785
609,18.56876667
610,18.39825
611,18.24546667
612,18.1615
613,18.0872
614,18.03255
615,17.96663333
616,17.9223
617,17.92733333
618,18.12016667
619,18.44353333
620,18.87416667
621,19.2537
622,19.61275
623,19.98256667
624,20.31745
625,20.55976667
626,20.77716667
627,20.91683333
628,20.53908333
629,20.132
630,19.94513333
631,19.8519
632,19.77766667
633,19.68886667
634,19.60821667
635,19.5346
636,19.46136667
637,19.38733333
638,19.33001667
639,19.26413333
640,19.17321667
641,19.10126667
642,19.3045
643,19.71626667
644,20.14251667
645,20.4162
646,20.67466667
647,20.90833333
648,21.05118333
649,21.24316667
650,21.44875
651,21.5811
652,21.30108333
653,20.86733333
654,20.59195
655,20.46043333
656,20.28246667
657,20.131
658,20.03096667
659,19.93536667
660,19.79643333
661,19.68763333
662,19.59691667
663,19.47943333
664,19.34796667
665,19.20896667
666,19.21746667
667,19.45816667
668,19.7664
669,20.07576667
670,20.38313333
671,20.71096667
672,21.05075
673,21.376
674,21.5889
675,21.79686667
676,21.84273333
677,21.40133333
678,20.98643333
679,20.78976667
680,20.6083
681,20.42916667
682,20.31183333
683,20.1188
684,19.9208
685,19.70683333
686,19.51078333
687,19.347
688,19.15926667
689,18.97093333
690,18.84601667
691,19.0191
692,19.33966667
693,19.68233333
694,19.97198333
695,20.21316667
696,20.49471667
697,20.79566667
698,21.09246667
699,21.33336667
700,21.55411667
701,21.24956667
702,20.81733333
703,20.59023333
704,20.43811667
705,20.22213333
706,20.03308333
707,19.94466667
708,19.89558333
709,19.8663
710,19.8087
711,19.7032
712,19.57183333
713,19.44503333
714,19.32925
715,19.43406667
716,19.74645
717,20.13066667
718,20.45233333
719,20.7127
720,21.0212
721,21.3187
722,21.63558333
723,21.9226
724,22.16178333
725,22.06003333
726,21.58495
727,21.21366667
728,20.99771667
729,20.79023333
730,20.58556667
731,20.41433333
732,20.24391667
733,20.11946667
734,19.99858333
735,19.85403333
736,19.6915
737,19.52183333
738,19.32633333
739,19.13963333
740,19.00755
741,18.97186667
742,19.05391667
743,19.1297
744,19.27785
745,19.29866667
746,19.38485
747,19.52266667
748,19.6459
749,19.70913333
750,19.75955
751,19.72753333
752,19.65025
753,19.53383333
754,19.47056667
755,19.48853333
756,19.45218333
757,19.429
758,19.43868333
759,19.42913333
760,19.43383333
761,19.44666667
762,19.46183333
763,19.44496667
764,19.36588333
765,19.3233
766,19.2758
767,19.21816667
768,19.27005
769,19.3371
770,19.46853333
771,19.6501
772,19.85275
773,19.98736667
774,20.06231667
775,20.06993333
776,20.04845
777,20.02483333
778,19.97628333
779,19.83633333
780,19.778
781,19.76383333
782,19.70383333
783,19.62656667
784,19.53938333
785,19.41676667
786,19.28245
787,19.11933333
788,19.12566667
789,19.34806667
790,19.70843333
791,20.23046667
792,20.68716667
793,21.1134
794,21.48733333
795,21.81153333
796,22.07821667
797,22.35683333
798,22.39675
799,21.9511
800,21.5861
801,21.37746667
802,21.14508333
803,20.90303333
804,20.70578333
805,20.56793333
806,20.38665
807,20.22116667
808,19.99233333
809,19.76486667
810,19.56153333
811,19.31563333
812,19.12283333
813,19.19016667
814,19.368
815,19.81983333
816,20.38348333
817,20.85216667
818,21.3194
819,21.7416
820,22.04366667
821,22.31113333
822,22.56325
823,22.26836667
824,21.8438
825,21.56956667
826,21.27966667
827,20.965
828,20.70188333
829,20.51246667
830,20.28946667
831,20.07076667
832,19.85566667
833,19.62593333
834,19.44525
835,19.24623333
836,19.06073333
837,19.09416667
838,19.33211667
839,19.7141
840,20.20078333
841,20.67356667
842,21.1355
843,21.50306667
844,21.83778333
845,22.14623333
846,22.4285
847,22.39233333
848,21.95343333
849,21.6359
850,21.40281667
851,21.16953333
852,21.01266667
853,20.9136
854,20.79308333
855,20.5924
856,20.32916667
857,20.03383333
858,19.87455
859,19.72433333
860,19.50411667
861,19.36236667
862,19.52416667
863,19.8472
864,20.2539
865,20.65286667
866,21.05856667
867,21.47433333
868,21.87226667
869,22.17673333
870,22.43586667
871,22.63
872,22.27841667
873,21.81576667
874,21.45811667
875,21.17346667
876,20.94508333
877,20.65083333
878,20.35843333
879,20.11006667
880,19.85678333
881,19.62353333
882,19.39975
883,19.16946667
884,18.9155
885,18.7188
886,18.7665
887,18.9595
888,19.38516667
889,19.89833333
890,20.3794
891,20.8358
892,21.24741667
893,21.60983333
894,21.92223333
895,22.244
896,22.15905
897,21.73833333
898,21.39118333
899,21.11123333
900,20.83681667
901,20.55873333
902,20.40608333
903,20.34593333
904,20.20205
905,20.06626667
906,19.86746667
907,19.68683333
908,19.52771667
909,19.3717
910,19.2524
911,19.1315
912,19.13458333
913,19.3122
914,19.44683333
915,19.55886667
916,19.59405
917,19.68866667
918,19.83135
919,19.94156667
920,19.97631667
921,20.02086667
922,20.00816667
923,19.9148
924,19.70508333
925,19.49896667
926,19.3519
927,19.18983333
928,18.99326667
929,18.81456667
930,18.5916
931,18.3688
932,18.14741667
933,17.95546667
934,17.77945
935,17.63966667
936,17.5555
937,17.63916667
938,17.87155
939,18.10493333
940,18.38131667
941,18.66163333
942,18.94583333
943,19.16293333
944,19.28183333
945,19.40123333
946,19.46351667
947,19.48033333
948,19.36723333
949,19.1542
950,18.93903333
951,18.73446667
952,18.52616667
953,18.36193333
954,18.22786667
955,18.03336667
956,17.89886667
957,17.77366667
958,17.58003333
959,17.55286667
960,17.79838333
961,18.24143333
962,18.89458333
963,19.46003333
964,19.98418333
965,20.38586667
966,20.76715
967,21.13633333
968,21.4943
969,21.52256667
970,21.1465
971,20.8329
972,20.57208333
973,20.2265
974,19.95048333
975,19.7932
976,19.70185
977,19.55366667
978,19.33663333
979,19.14546667
980,18.95575
981,18.71566667
982,18.5345
983,18.40486667
984,18.54471667
985,18.88926667
986,19.3965
987,19.8915
988,20.39091667
989,20.87036667
990,21.2545
991,21.5928
992,21.92383333
993,22.1405
994,21.78435
995,21.4078
996,21.13643333
997,20.82033333
998,20.57353333
999,20.38133333
1000,20.193
1001,20.08096667
1002,19.98608333
1003,19.85036667
1004,19.69938333
1005,19.5614
1006,19.43006667
1007,19.2795
1008,19.33543333
1009,19.58333333
1010,19.94088333
1011,20.3046
1012,20.65166667
1013,21.00753333
1014,21.36023333
1015,21.66926667
1016,21.94256667
1017,22.21983333
1018,22.12026667
1019,21.7261
1020,21.46115
1021,21.29956667
1022,21.1185
1023,20.91756667
1024,20.77601667
1025,20.64596667
1026,20.44476667
1027,20.27966667
1028,20.09795
1029,19.95326667
1030,19.8326
1031,19.68373333
1032,19.65508333
1033,19.90663333
1034,20.27776667
1035,20.6341
1036,20.89208333
1037,21.0985
1038,21.3195
1039,21.5803
1040,21.78316667
1041,21.95906667
1042,22.04458333
1043,21.6761
1044,21.269
1045,21.03643333
1046,20.86348333
1047,20.6595
1048,20.53105
1049,20.4793
1050,20.41431667
1051,20.33926667
1052,20.26125
1053,20.1855
1054,20.11111667
1055,20.0273
1056,19.97431667
1057,20.20066667
1058,20.54321667
1059,20.9546
1060,21.31148333
1061,21.62296667
1062,21.92808333
1063,22.2305
1064,22.50018333
1065,22.7272
1066,22.95498333
1067,22.72916667
1068,22.31715
1069,22.03413333
1070,21.84121667
1071,21.60466667
1072,21.43841667
1073,21.35686667
1074,21.2379
1075,21.114
1076,20.99645
1077,20.86433333
1078,20.73076667
1079,20.65593333
1080,20.5624
1081,20.43166667
1082,20.3135
1083,20.32743333
1084,20.41185
1085,20.45046667
1086,20.4387
1087,20.385
1088,20.4144
1089,20.50213333
1090,20.59758333
1091,20.63163333
1092,20.64708333
1093,20.67146667
1094,20.68608333
1095,20.7141
1096,20.73446667
1097,20.67816667
1098,20.60106667
1099,20.49083333
1100,20.3587
1101,20.23846667
1102,20.16566667
1103,20.15653333
1104,20.13833333
1105,20.09583333
1106,20.00695
1107,19.95633333
1108,19.92251667
1109,19.8996
1110,19.91613333
1111,19.96143333
1112,20.08641667
1113,20.1985
1114,20.33093333
1115,20.45173333
1116,20.53235
1117,20.53866667
1118,20.55896667
1119,20.58336667
1120,20.53078333
1121,20.5608
1122,20.58725
1123,20.5635
1124,20.51576667
1125,20.44746667
1126,20.35888333
1127,20.27816667
1128,20.16686667
1129,20.03813333
1130,19.90443333
1131,19.78
1132,19.78383333
1133,19.8568
1134,19.93335
1135,20.0177
1136,20.1112
1137,20.1995
1138,20.33733333
1139,20.49356667
1140,20.6078
1141,20.59776667
1142,20.52208333
1143,20.46086667
1144,20.41606667
1145,20.34713333
1146,20.18158333
1147,20.04683333
1148,19.87983333
1149,19.6886
1150,19.54873333
1151,19.42766667
1152,19.31383333
1153,19.1955
1154,19.20886667
1155,19.46556667
1156,19.88366667
1157,20.297
1158,20.6591
1159,21.0516
1160,21.4426
1161,21.7779
1162,22.00466667
1163,22.21213333
1164,22.35288333
1165,21.99093333
1166,21.59788333
1167,21.368
1168,21.10165
1169,20.85193333
1170,20.63188333
1171,20.4409
1172,20.24475
1173,20.04173333
1174,19.8237
1175,19.6026
1176,19.39146667
1177,19.1745
1178,18.96941667
1179,19.03063333
1180,19.31651667
1181,19.79263333
1182,20.31991667
1183,20.82773333
1184,21.23935
1185,21.59963333
1186,21.9958
1187,22.29983333
1188,22.55708333
1189,22.37093333
1190,21.94655
1191,21.66146667
1192,21.42983333
1193,21.14826667
1194,20.94986667
1195,20.83146667
1196,20.694
1197,20.585
1198,20.40993333
1199,20.24626667
1200,20.11565
1201,19.98883333
1202,19.84608333
1203,19.83143333
1204,20.08583333
1205,20.50653333
1206,20.8962
1207,21.12933333
1208,21.39808333
1209,21.6978
1210,22.03685
1211,22.30476667
1212,22.54983333
1213,22.537
1214,22.09528333
1215,21.72393333
1216,21.49811667
1217,21.27666667
1218,21.03141667
1219,20.77323333
1220,20.5396
1221,20.3947
1222,20.27383333
1223,20.14043333
1224,20.01191667
1225,19.8689
1226,19.70958333
1227,19.55683333
1228,19.77943333
1229,20.20593333
1230,20.67586667
1231,21.11213333
1232,21.54866667
1233,21.94706667
1234,22.27843333
1235,22.6096
1236,22.9372
1237,23.15816667
1238,22.8495
1239,22.4892
1240,22.2251
1241,21.88116667
1242,21.56558333
1243,21.32733333
1244,21.16865
1245,21.0584
1246,20.91125
1247,20.71
1248,20.48893333
1249,20.26096667
1250,20.01891667
1251,19.78536667
1252,19.54791667
1253,19.45583333
1254,19.66635
1255,19.89953333
1256,20.10445
1257,20.22666667
1258,20.35003333
1259,20.5464
1260,20.64645
1261,20.7795
1262,20.89825
1263,20.88923333
1264,20.83293333
1265,20.74443333
1266,20.63656667
1267,20.59783333
1268,20.5122
1269,20.39556667
1270,20.26891667
1271,20.17176667
1272,20.02925
1273,19.84436667
1274,19.69988333
1275,19.54763333
1276,19.38456667
1277,19.241
1278,19.21275
1279,19.3472
1280,19.48583333
1281,19.64186667
1282,19.866
1283,20.11813333
1284,20.37801667
1285,20.57033333
1286,20.69826667
1287,20.83016667
1288,20.85818333
1289,20.85793333
1290,20.72621667
1291,20.5662
1292,20.473
1293,20.34156667
1294,20.19301667
1295,20.03313333
1296,19.84756667
1297,19.66466667
1298,19.49783333
1299,19.2956
1300,19.11718333
1301,19.192
1302,19.47516667
1303,19.9795
1304,20.52435
1305,21.0217
1306,21.46546667
1307,21.845
1308,22.24343333
1309,22.63363333
1310,22.92975
1311,22.7049
1312,22.29866667
1313,22.0645
1314,21.89071667
1315,21.67413333
1316,21.50296667
1317,21.387
1318,21.27585
1319,21.12973333
1320,20.98413333
1321,20.84013333
1322,20.72566667
1323,20.65843333
1324,20.57011667
1325,20.61776667
1326,20.91653333
1327,21.30733333
1328,21.66803333
1329,21.97413333
1330,22.27646667
1331,22.59163333
1332,22.79241667
1333,22.9402
1334,23.11196667
1335,23.09516667
1336,22.62178333
1337,22.2
1338,21.9639
